# omega0=1, alpha=1
# theta0=0.1, theta_dot0=0
# t_start=0, t_end=50, h=0.00911928
#   t          x(t)                 v(t)       
0  1.000000000000000e-01  0.000000000000000e+00
9.119282013323059e-02 9.959749806048256e-02 -8.689319428821170e-03
1.823856402664613e-01 9.844030830522774e-02 -1.655261612037873e-02
2.735784603996920e-01 9.660335445286002e-02 -2.359972225222145e-02
3.647712805329227e-01 9.416040494899484e-02 -2.984603917373353e-02
4.559641006661534e-01 9.118359313433608e-02 -3.531192537620031e-02
5.471569207993838e-01 8.774299240482912e-02 -4.002210287534328e-02
6.383497409326140e-01 8.390624457930040e-02 -4.400508423983848e-02
7.295425610658441e-01 7.973823950632122e-02 -4.729262208055882e-02
8.207353811990743e-01 7.530084379161975e-02 -4.991918249935043e-02
9.119282013323045e-01 7.065267640213888e-02 -5.192144375529193e-02
1.003121021465535e+00 6.584892879710220e-02 -5.333782121599436e-02
1.094313841598765e+00 6.094122714657375e-02 -5.420801950100931e-02
1.185506661731995e+00 5.597753412202466e-02 -5.457261257767149e-02
1.276699481865225e+00 5.100208768066267e-02 -5.447265242498167e-02
1.367892301998455e+00 4.605537421593273e-02 -5.394930673083308e-02
1.459085122131685e+00 4.117413341137359e-02 -5.304352592804502e-02
1.550277942264916e+00 3.639139211484734e-02 -5.179573970434671e-02
1.641470762398146e+00 3.173652454595562e-02 -5.024558294206244e-02
1.732663582531376e+00 2.723533616191373e-02 -4.843165085785795e-02
1.823856402664606e+00 2.291016853663718e-02 -4.639128292562612e-02
1.915049222797836e+00 1.878002265427038e-02 -4.416037498100481e-02
2.006242042931067e+00 1.486069808139654e-02 -4.177321872872607e-02
2.097434863064297e+00 1.116494556084888e-02 -3.926236770824130e-02
2.188627683197527e+00 7.702630663173553e-03 -3.665852862249117e-02
2.279820503330757e+00 4.480906237851177e-03 -3.399047680216014e-02
2.371013323463987e+00 1.504391523623669e-03 -3.128499446530039e-02
2.462206143597217e+00 -1.224644096195483e-03 -2.856683034100595e-02
2.553398963730448e+00 -3.706094573687140e-03 -2.585867915624493e-02
2.644591783863678e+00 -5.941829652597610e-03 -2.318117943669220e-02
2.735784603996908e+00 -7.935507899250765e-03 -2.055292804453225e-02
2.826977424130138e+00 -9.692391762080907e-03 -1.799050986734559e-02
2.918170244263368e+00 -1.121916596940560e-02 -1.550854108064448e-02
3.009363064396598e+00 -1.252376043218475e-02 -1.311972443046434e-02
3.100555884529828e+00 -1.361517867843822e-02 -1.083491501962335e-02
3.191748704663059e+00 -1.450333270984546e-02 -8.663195129802072e-03
3.282941524796289e+00 -1.519888503976940e-02 -6.611956669495259e-03
3.374134344929519e+00 -1.571309854630189e-02 -4.686989903296224e-03
3.465327165062749e+00 -1.605769465452463e-02 -2.892577189189872e-03
3.556519985195979e+00 -1.624472024947682e-02 -1.231590526029092e-03
3.647712805329209e+00 -1.628642361564665e-02 2.944082081896104e-04
3.738905625462440e+00 -1.619513960037228e-02 1.685065366410825e-03
3.830098445595670e+00 -1.598318410746569e-02 2.941132949103810e-03
3.921291265728900e+00 -1.566275794369323e-02 4.064366204496113e-03
4.012484085862130e+00 -1.524585996442419e-02 5.057422209346144e-03
4.103676905995361e+00 -1.474420939570072e-02 5.923760148178377e-03
4.194869726128591e+00 -1.416917714804765e-02 6.667543931708037e-03
4.286062546261821e+00 -1.353172588235027e-02 7.293547720141921e-03
4.377255366395051e+00 -1.284235853987042e-02 7.807064844479395e-03
4.468448186528281e+00 -1.211107500670673e-02 8.213820549118712e-03
4.559641006661511e+00 -1.134733654747419e-02 8.519888912220814e-03
4.650833826794742e+00 -1.056003761340140e-02 8.731614236581847e-03
4.742026646927972e+00 -9.757484606126597e-03 8.855537143371965e-03
4.833219467061202e+00 -8.947381159907558e-03 8.898325544140925e-03
4.924412287194432e+00 -8.136819491428166e-03 8.866710613074150e-03
5.015605107327662e+00 -7.332277357558774e-03 8.767427831688091e-03
5.106797927460892e+00 -6.539620156974985e-03 8.607163132037991e-03
5.197990747594122e+00 -5.764107711123635e-03 8.392504122109836e-03
5.289183567727353e+00 -5.010405263305471e-03 8.129896338392480e-03
5.380376387860583e+00 -4.282598241282266e-03 7.825604435663476e-03
5.471569207993813e+00 -3.584210338474656e-03 7.485678192737713e-03
5.562762028127043e+00 -2.918224481162851e-03 7.115923185262577e-03
5.653954848260273e+00 -2.287106263809080e-03 6.721875952516626e-03
5.745147668393503e+00 -1.692829451370004e-03 6.308783464478874e-03
5.836340488526734e+00 -1.136903165951250e-03 5.881586678061672e-03
5.927533308659964e+00 -6.204003950785676e-04 5.444907957203622e-03
6.018726128793194e+00 -1.439874799379858e-04 5.003042120346108e-03
6.109918948926424e+00 2.920457360974965e-04 4.559950870501563e-03
6.201111769059654e+00 6.877553957372758e-04 4.119260357486360e-03
6.292304589192884e+00 1.043513026922576e-03 3.684261618751382e-03
6.383497409326115e+00 1.359975103761628e-03 3.257913644408291e-03
6.474690229459345e+00 1.638052996999511e-03 2.842848813325467e-03
6.565883049592575e+00 1.878883518820035e-03 2.441380450359663e-03
6.657075869725805e+00 2.083800244196546e-03 2.055512259703576e-03
6.748268689859035e+00 2.254305768947481e-03 1.686949395774428e-03
6.839461509992265e+00 2.392045043241742e-03 1.337110940857102e-03
6.930654330125495e+00 2.498779898652904e-03 1.007143567665932e-03
7.021847150258726e+00 2.576364867077640e-03 6.979361749269774e-04
7.113039970391956e+00 2.626724370995113e-03 4.101352948403722e-04
7.204232790525186e+00 2.651831346717701e-03 1.441610827013235e-04
7.295425610658416e+00 2.653687345522853e-03 -9.977628911129808e-05
7.386618430791646e+00 2.634304141901174e-03 -3.216599982685472e-04
7.477811250924876e+00 2.595686863634902e-03 -5.216498536955228e-04
7.569004071058107e+00 2.539818645049857e-03 -7.000656311338145e-04
7.660196891191337e+00 2.468646792568802e-03 -8.573705906814837e-04
7.751389711324567e+00 2.384070440630561e-03 -9.941552913544374e-04
7.842582531457797e+00 2.287929666114811e-03 -1.111121805322475e-03
7.933775351591027e+00 2.181996020606334e-03 -1.209068422349483e-03
8.024968171724257e+00 2.067964432117034e-03 -1.288874923182847e-03
8.116160991857488e+00 1.947446421225251e-03 -1.351488489255801e-03
8.207353811990718e+00 1.821964570950599e-03 -1.397910305142937e-03
8.298546632123948e+00 1.692948185014633e-03 -1.429182899790036e-03
8.389739452257178e+00 1.561730065395452e-03 -1.446378262663142e-03
8.480932272390408e+00 1.429544337216783e-03 -1.450586761659316e-03
8.572125092523638e+00 1.297525246965823e-03 -1.442906880916425e-03
8.663317912656868e+00 1.166706858753693e-03 -1.424435788568610e-03
8.754510732790099e+00 1.038023572761417e-03 -1.396260737028331e-03
8.845703552923329e+00 9.123113900954340e-04 -1.359451291539919e-03
8.936896373056559e+00 7.903098489524580e-04 -1.315052376542778e-03
9.028089193189789e+00 6.726645582068374e-04 -1.264078123799272e-03
9.119282013323019e+00 5.599302562279475e-04 -1.207506501272890e-03
9.210474833456249e+00 4.525743248552489e-04 -1.146274697372639e-03
9.301667653589480e+00 3.509806909505345e-04 -1.081275231392177e-03
9.392860473722710e+00 2.554540507583836e-04 -1.013352757746409e-03
9.484053293855940e+00 1.662243553867720e-04 -9.433015289208776e-04
9.575246113989170e+00 8.345149902220950e-05 -8.718634798747306e-04
9.666438934122400e+00 7.230154972141405e-06 -7.997268949489197e-04
9.757631754255630e+00 -6.240529176128131e-05 -7.275256170988428e-04
9.848824574388860e+00 -1.254757629678903e-04 -6.558387584647407e-04
9.940017394522091e+00 -1.820525006091966e-04 -5.851908708831544e-04
1.003121021465532e+01 -2.322521151438417e-04 -5.160525348973417e-04
1.012240303478855e+01 -2.762317050830380e-04 -4.488413261123436e-04
1.021359585492178e+01 -3.141840803319646e-04 -3.839231183300485e-04
1.030478867505501e+01 -3.463331182111766e-04 -3.216136837601199e-04
1.039598149518824e+01 -3.729292774798370e-04 -2.621805517035830e-04
1.048717431532147e+01 -3.942452922205634e-04 -2.058450884175015e-04
1.057836713545470e+01 -4.105720641117801e-04 -1.527847623627074e-04
1.066955995558793e+01 -4.222147684230048e-04 -1.031355606842728e-04
1.076075277572116e+01 -4.294891860343144e-04 -5.699452454977425e-05
1.085194559585439e+01 -4.327182709138044e-04 -1.442237284817305e-05
1.094313841598762e+01 -4.322289597944245e-04 2.455381429152161e-05
1.103433123612085e+01 -4.283492282802739e-04 5.993787869013090e-05
1.112552405625408e+01 -4.214053952864263e-04 9.176185849724610e-05
1.121671687638731e+01 -4.117196755779528e-04 1.200832761760016e-04
1.130790969652054e+01 -3.996079782236593e-04 1.449824604485380e-04
1.139910251665377e+01 -3.853779470172248e-04 1.665599205131510e-04
1.149029533678700e+01 -3.693272373405953e-04 1.849337888329689e-04
1.158148815692023e+01 -3.517420225480693e-04 2.002373468306849e-04
1.167268097705346e+01 -3.328957217297708e-04 2.126166459159975e-04
1.176387379718669e+01 -3.130479396644448e-04 2.222282344321307e-04
1.185506661731992e+01 -2.924436088871498e-04 2.292369993438420e-04
1.194625943745315e+01 -2.713123230701560e-04 2.338141298090292e-04
1.203745225758638e+01 -2.498678503372759e-04 2.361352081854845e-04
1.212864507771961e+01 -2.283078146945397e-04 2.363784325283068e-04
1.221983789785284e+01 -2.068135334547898e-04 2.347229732356360e-04
1.231103071798607e+01 -1.855499983513224e-04 2.313474652032408e-04
1.240222353811930e+01 -1.646659879669012e-04 2.264286356536123e-04
1.249341635825254e+01 -1.442942991399338e-04 2.201400667131620e-04
1.258460917838577e+01 -1.245520851399772e-04 2.126510908216024e-04
1.267580199851900e+01 -1.055412886207166e-04 2.041258161695365e-04
1.276699481865223e+01 -8.734915765095858e-05 1.947222785718941e-04
1.285818763878546e+01 -7.004883348401917e-05 1.845917154937156e-04
1.294938045891869e+01 -5.369999914443355e-05 1.738779573479043e-04
1.304057327905192e+01 -3.834957837971740e-05 1.627169306784765e-04
1.313176609918515e+01 -2.403247503587967e-05 1.512362674236364e-04
1.322295891931838e+01 -1.077234346077629e-05 1.395550141164558e-04
1.331415173945161e+01 1.417618888117896e-06 1.277834346225022e-04
1.340534455958484e+01 1.253386486227180e-05 1.160228998286949e-04
1.349653737971807e+01 2.258168469135792e-05 1.043658575810372e-04
1.358773019985130e+01 3.157439371347641e-05 9.289587611564261e-05
1.367892301998453e+01 3.953252716035719e-05 8.168775423254401e-05
1.377011584011776e+01 4.648304777822698e-05 7.080769152001616e-05
1.386130866025099e+01 5.245857145924295e-05 6.031351204346600e-05
1.395250148038422e+01 5.749661546430596e-05 5.025493506231088e-05
1.404369430051745e+01 6.163887323937376e-05 4.067388652573742e-05
1.413488712065068e+01 6.493051926735156e-05 3.160484531899983e-05
1.422607994078391e+01 6.741954685906770e-05 2.307521848132428e-05
1.431727276091714e+01 6.915614127215198e-05 1.510573989005493e-05
1.440846558105037e+01 7.019209005782904e-05 7.710887199130580e-06
1.449965840118360e+01 7.058023207434701e-05 8.993121292536680e-07
1.459085122131683e+01 7.037394617324740e-05 -5.325720471628816e-06
1.468204404145006e+01 6.962668016187306e-05 -1.096588904926769e-05
1.477323686158329e+01 6.839152027301761e-05 -1.602737116252739e-05
1.486442968171652e+01 6.672080103075819e-05 -2.052040228169968e-05
1.495562250184975e+01 6.466575509032954e-05 -2.445884081041509e-05
1.504681532198298e+01 6.227620234918781e-05 -2.785974224361715e-05
1.513800814211621e+01 5.960027737575324e-05 -3.074294504765360e-05
1.522920096224944e+01 5.668419398108054e-05 -3.313067053003763e-05
1.532039378238267e+01 5.357204556608008e-05 -3.504713865767953e-05
1.541158660251590e+01 5.030563971193625e-05 -3.651820148499037e-05
1.550277942264913e+01 4.692436534294359e-05 -3.757099556858329e-05
1.559397224278236e+01 4.346509067788999e-05 -3.823361447450078e-05
1.568516506291559e+01 3.996209009705112e-05 -3.853480222791608e-05
1.577635788304882e+01 3.644699798543431e-05 -3.850366831483687e-05
1.586755070318205e+01 3.294878756767670e-05 -3.816942462103301e-05
1.595874352331528e+01 2.949377272447537e-05 -3.756114448559364e-05
1.604993634344851e+01 2.610563077309048e-05 -3.670754385540679e-05
1.614112916358174e+01 2.280544420378905e-05 -3.563678435250817e-05
1.623232198371497e+01 1.961175938856120e-05 -3.437629790858860e-05
1.632351480384820e+01 1.654066031652807e-05 -3.295263247977964e-05
1.641470762398143e+01 1.360585546068128e-05 -3.139131822983804e-05
1.650590044411466e+01 1.081877594149225e-05 -2.971675346060577e-05
1.659709326424789e+01 8.188683223090371e-06 -2.795210947462701e-05
1.668828608438112e+01 5.722784655768051e-06 -2.611925347547568e-05
1.677947890451435e+01 3.426355263219755e-06 -2.423868854603720e-05
1.687067172464758e+01 1.302864262914166e-06 -2.232950969299334e-05
1.696186454478081e+01 -6.458950978467920e-07 -2.040937490633307e-05
1.705305736491404e+01 -2.419673710421521e-06 -1.849449015507048e-05
1.714425018504727e+01 -4.019633998893816e-06 -1.659960722368820e-05
1.723544300518050e+01 -5.448217660457429e-06 -1.473803328731467e-05
1.732663582531373e+01 -6.709014772434898e-06 -1.292165112645412e-05
1.741782864544696e+01 -7.806635186461718e-06 -1.116094889338406e-05
1.750902146558019e+01 -8.746583031968689e-06 -9.465058361287069e-06
1.760021428571342e+01 -9.535135054743345e-06 -7.841800612974566e-06
1.769140710584665e+01 -1.017922342263255e-05 -6.297738157887851e-06
1.778259992597988e+01 -1.068632353987780e-05 -4.838232503148614e-06
1.787379274611311e+01 -1.106434732459697e-05 -3.467506246023048e-06
1.796498556624634e+01 -1.132154232091970e-05 -2.188708800538528e-06
1.805617838637957e+01 -1.146639693856045e-05 -1.003984919458928e-06
1.814737120651280e+01 -1.150755203842643e-05 8.545477627016526e-08
1.823856402664603e+01 -1.145371901340022e-05 1.079261995768782e-06
1.832975684677927e+01 -1.131360444884902e-05 1.977878385354905e-06
1.842094966691250e+01 -1.109584138778202e-05 2.782463171077762e-06
1.851214248704573e+01 -1.080892717094663e-05 3.494821408280744e-06
1.860333530717896e+01 -1.046116777252081e-05 4.117333355178979e-06
1.869452812731219e+01 -1.006062850738159e-05 4.652885433449309e-06
1.878572094744542e+01 -9.615090946131653e-06 5.104803185871170e-06
1.887691376757865e+01 -9.132015839037391e-06 5.476786589456553e-06
1.896810658771188e+01 -8.618511819636341e-06 5.772848032557490e-06
1.905929940784511e+01 -8.081309632845587e-06 5.997253216392877e-06
1.915049222797834e+01 -7.526741610763619e-06 6.154465195509058e-06
1.924168504811157e+01 -6.960726101803145e-06 6.249091728060177e-06
1.933287786824480e+01 -6.388756545105711e-06 6.285836065611292e-06
1.942407068837803e+01 -5.815894872141875e-06 6.269451273543386e-06
1.951526350851126e+01 -5.246768910755880e-06 6.204698137158615e-06
1.960645632864449e+01 -4.685573463427394e-06 6.096306675301619e-06
1.969764914877772e+01 -4.136074730947420e-06 5.948941252757938e-06
1.978884196891095e+01 -3.601617754791724e-06 5.767169254868123e-06
1.988003478904418e+01 -3.085136555974585e-06 5.555433262689206e-06
1.997122760917741e+01 -2.589166654832237e-06 5.318026644606229e-06
2.006242042931064e+01 -2.115859664777175e-06 5.059072460490445e-06
2.015361324944387e+01 -1.666999663345624e-06 4.782505557246332e-06
2.024480606957710e+01 -1.244021055601808e-06 4.492057719801104e-06
2.033599888971033e+01 -8.480276579439654e-07 4.191245729170849e-06
2.042719170984356e+01 -4.798127443668170e-07 3.883362169078674e-06
2.051838452997679e+01 -1.398798120728422e-07 3.571468814585987e-06
2.060957735011002e+01 1.715361612000586e-07 3.258392430205191e-06
2.070077017024325e+01 4.544471798324098e-07 2.946722800861759e-06
2.079196299037648e+01 7.090906084292912e-07 2.638812816733822e-06
2.088315581050971e+01 9.359076444841596e-07 2.336780432282859e-06
2.097434863064294e+01 1.135522048344199e-06 2.042512320564168e-06
2.106554145077617e+01 1.308719276992886e-06 1.757669046034230e-06
2.115673427090940e+01 1.456426152187993e-06 1.483691582419267e-06
2.124792709104263e+01 1.579691177871531e-06 1.221809006642168e-06
2.133911991117586e+01 1.679665606595237e-06 9.730472051939234e-07
2.143031273130909e+01 1.757585340062488e-06 7.382384355544383e-07
2.152150555144232e+01 1.814753734845173e-06 5.180315921944911e-07
2.161269837157555e+01 1.852525370951129e-06 3.129030342088856e-07
2.170389119170878e+01 1.872290828243230e-06 1.231678396292415e-07
2.179508401184201e+01 1.875462503783908e-06 -5.100864016196245e-08
2.188627683197524e+01 1.863461492028488e-06 -2.095990438457464e-07
2.197746965210847e+01 1.837705539437973e-06 -3.527021905074159e-07
2.206866247224170e+01 1.799598075539705e-06 -4.805312970734148e-07
2.215985529237493e+01 1.750518313737544e-06 -5.934023140680434e-07
2.225104811250816e+01 1.691812407260401e-06 -6.917224620231490e-07
2.234224093264139e+01 1.624785638530714e-06 -7.759790421041554e-07
2.243343375277462e+01 1.550695613919299e-06 -8.467285859261129e-07
2.252462657290785e+01 1.470746430310857e-06 -9.045864011763725e-07
2.261581939304108e+01 1.386083775111999e-06 -9.502165615820991e-07
2.270701221317431e+01 1.297790917263729e-06 -9.843223820010316e-07
2.279820503330754e+01 1.206885543442131e-06 -1.007637412006526e-06
2.288939785344077e+01 1.114317390911211e-06 -1.020916974311107e-06
2.298059067357400e+01 1.020966626394594e-06 -1.024930267749142e-06
2.307178349370723e+01 9.276429188204650e-07 -1.020453048336313e-06
2.316297631384046e+01 8.350851528278395e-07 -1.008260896153873e-06
2.325416913397369e+01 7.439617294620342e-07 -9.891230704773639e-07
2.334536195410692e+01 6.548714004925593e-07 -9.637969506863008e-07
2.343655477424015e+01 5.683445832170668e-07 -9.330230560533622e-07
2.352774759437338e+01 4.848451034298903e-07 -8.975206335152837e-07
2.361894041450661e+01 4.047723153931832e-07 -8.579837989661617e-07
2.371013323463984e+01 3.284635491134294e-07 -8.150782144776629e-07
2.380132605477307e+01 2.561968369579428e-07 -7.694382811275180e-07
2.389251887490630e+01 1.881938736078321e-07 -7.216648247932867e-07
2.398371169503953e+01 1.246231655001796e-07 -6.723232503264332e-07
2.407490451517276e+01 6.560332822877308e-08 -6.219421379443250e-07
2.416609733530600e+01 1.120649281728573e-08 -5.710122544456310e-07
2.425729015543923e+01 -3.853821567926746e-08 -5.199859509474336e-07
2.434848297557246e+01 -8.364116117831940e-08 -4.692769182390727e-07
2.443967579570569e+01 -1.241486724596804e-07 -4.192602705265948e-07
2.453086861583892e+01 -1.601395405526134e-07 -3.702729282806818e-07
2.462206143597215e+01 -1.917215635666289e-07 -3.226142710778511e-07
2.471325425610538e+01 -2.190281622742809e-07 -2.765470317174394e-07
2.480444707623861e+01 -2.422150871607738e-07 -2.322984034834711e-07
2.489563989637184e+01 -2.614572351232266e-07 -1.900613331794032e-07
2.498683271650507e+01 -2.769455915467404e-07 -1.499959734738985e-07
2.507802553663830e+01 -2.888843111178306e-07 -1.122312691367890e-07
2.516921835677153e+01 -2.974879484693543e-07 -7.686665289657729e-08
2.526041117690476e+01 -3.029788475940448e-07 -4.397382789534709e-08
2.535160399703799e+01 -3.055846969237747e-07 -1.359861503588186e-08
2.544279681717122e+01 -3.055362550546879e-07 1.423715510784275e-08
2.553398963730445e+01 -3.030652503088940e-07 3.953372472775129e-08
2.562518245743768e+01 -2.984024556645879e-07 6.231148303280834e-08
2.571637527757091e+01 -2.917759390600438e-07 8.260904832333857e-08
2.580756809770414e+01 -2.834094876835132e-07 1.004813724401939e-07
2.589876091783737e+01 -2.735212036001134e-07 1.159978806944185e-07
2.598995373797060e+01 -2.623222669367850e-07 1.292406589589854e-07
2.608114655810383e+01 -2.500158618448987e-07 1.403026982114367e-07
2.617233937823706e+01 -2.367962595838490e-07 1.492862054631864e-07
2.626353219837029e+01 -2.228480523140336e-07 1.563009887051318e-07
2.635472501850352e+01 -2.083455305493963e-07 1.614629222463366e-07
2.644591783863675e+01 -1.934521966931232e-07 1.648924976282300e-07
2.653711065876998e+01 -1.783204066595534e-07 1.667134641653651e-07
2.662830347890321e+01 -1.630911312650183e-07 1.670515620988229e-07
2.671949629903644e+01 -1.478938288439547e-07 1.660333503524931e-07
2.681068911916967e+01 -1.328464204078542e-07 1.637851299575886e-07
2.690188193930290e+01 -1.180553586068942e-07 1.604319633580386e-07
