# omega0=1, alpha=0.2
# theta0=-0.79, theta_dot0=0.1234
# t_start=0, t_end=50, h=0.0116355
#   t          x(t)                 v(t)       
25.1211 -7.889438102289367e+00 2.070796615084511e+00
2.523746098383916e+01 -7.641409821898311e+00 2.190668364521395e+00
2.535381626730547e+01 -7.380215621098848e+00 2.295848224588956e+00
2.547017155077177e+01 -7.108007080542581e+00 2.378730053424309e+00
2.558652683423808e+01 -6.827803906053278e+00 2.432170103100993e+00
2.570288211770438e+01 -6.543378073278613e+00 2.450561326738066e+00
2.581923740117069e+01 -6.259016130816287e+00 2.430801873078822e+00
2.593559268463699e+01 -5.979189847184223e+00 2.372856405369767e+00
2.605194796810330e+01 -5.708195597874566e+00 2.279715224598438e+00
2.616830325156960e+01 -5.449834003738398e+00 2.156764376402287e+00
2.628465853503591e+01 -5.207187426039730e+00 2.010781195289005e+00
2.640101381850221e+01 -4.982521329083078e+00 1.848860382932048e+00
2.651736910196852e+01 -4.777301511094285e+00 1.677530222780974e+00
2.663372438543482e+01 -4.592295979015581e+00 1.502191900957626e+00
2.675007966890113e+01 -4.427722552499294e+00 1.326886381540014e+00
2.686643495236743e+01 -4.283408007266115e+00 1.154312982812589e+00
2.698279023583374e+01 -4.158935301417637e+00 9.859991924683249e-01
2.709914551930004e+01 -4.053766617238584e+00 8.225341028381830e-01
2.721550080276635e+01 -3.967338584311999e+00 6.638056067970781e-01
2.733185608623265e+01 -3.899131375126017e+00 5.092088218700966e-01
2.744821136969896e+01 -3.848715889681561e+00 3.578135105067874e-01
2.756456665316526e+01 -3.815783872198997e+00 2.084907702894227e-01
2.768092193663157e+01 -3.800165346265721e+00 6.000576327025029e-02
2.779727722009787e+01 -3.801836781023566e+00 -8.891400030155398e-02
2.791363250356418e+01 -3.820922233872716e+00 -2.395244783602727e-01
2.802998778703048e+01 -3.857688502167863e+00 -3.930145634688621e-01
2.814634307049679e+01 -3.912534101696306e+00 -5.504487680108600e-01
2.826269835396309e+01 -3.985970677093678e+00 -7.126927351890429e-01
2.837905363742940e+01 -4.078594258054832e+00 -8.803116160239771e-01
2.849540892089570e+01 -4.191042698828817e+00 -1.053433098575496e+00
2.861176420436201e+01 -4.323934913642593e+00 -1.231571484343322e+00
2.872811948782831e+01 -4.477787599757236e+00 -1.413418800141984e+00
2.884447477129462e+01 -4.652906732577276e+00 -1.596625656386317e+00
2.896083005476092e+01 -4.849255116289105e+00 -1.777619051960001e+00
2.907718533822723e+01 -5.066304426185714e+00 -1.951532873378363e+00
2.919354062169353e+01 -5.302890377890940e+00 -2.112347954450245e+00
2.930989590515984e+01 -5.557100931495238e+00 -2.253331977191920e+00
2.942625118862614e+01 -5.826235217885158e+00 -2.367812958738481e+00
2.954260647209245e+01 -6.106868723498039e+00 -2.450207521996531e+00
2.965896175555875e+01 -6.395043091900866e+00 -2.497088588388804e+00
2.977531703902506e+01 -6.686567827583239e+00 -2.507988871147622e+00
2.989167232249136e+01 -6.977386428433368e+00 -2.485670455381067e+00
3.000802760595767e+01 -7.263936801163615e+00 -2.435758805399242e+00
3.012438288942397e+01 -7.543437050765371e+00 -2.365863297007925e+00
3.024073817289028e+01 -7.814052345854638e+00 -2.284465752852227e+00
3.035709345635658e+01 -8.074933984483714e+00 -2.199880228304887e+00
3.047344873982289e+01 -8.326152210882094e+00 -2.119489443116142e+00
3.058980402328919e+01 -8.568560048451804e+00 -2.049322361608934e+00
3.070615930675550e+01 -8.803625868564168e+00 -1.993924825329998e+00
3.082251459022180e+01 -9.033263063540556e+00 -1.956420413718617e+00
3.093886987368811e+01 -9.259672574836348e+00 -1.938654048976851e+00
3.105522515715441e+01 -9.485202693250987e+00 -1.941333719378874e+00
3.117158044062072e+01 -9.712222492997229e+00 -1.964116747556442e+00
3.128793572408702e+01 -9.943000781199165e+00 -2.005616609590192e+00
3.140429100755333e+01 -1.017958122358458e+01 -2.063332999596287e+00
3.152064629101963e+01 -1.042364614661039e+01 -2.133534292828968e+00
3.163700157448594e+01 -1.067636654610266e+01 -2.211150053995687e+00
3.175335685795224e+01 -1.093824421265547e+01 -2.289759314132910e+00
3.186971214141855e+01 -1.120896303197017e+01 -2.361777258006358e+00
3.198606742488485e+01 -1.148727808408312e+01 -2.418929603877365e+00
3.210242270835116e+01 -1.177097842755245e+01 -2.453040935754838e+00
3.221877799181746e+01 -1.205695627496313e+01 -2.457049253454754e+00
3.233513327528377e+01 -1.234139739512318e+01 -2.426030001755563e+00
3.245148855875007e+01 -1.262007717324761e+01 -2.357939480411597e+00
3.256784384221638e+01 -1.288871440639427e+01 -2.253834372692880e+00
3.268419912568268e+01 -1.314331547012427e+01 -2.117492032729693e+00
3.280055440914899e+01 -1.338044499877179e+01 -1.954564272493962e+00
3.291690969261529e+01 -1.359738381946521e+01 -1.771535581502264e+00
3.303326497608160e+01 -1.379216819842353e+01 -1.574765671013474e+00
3.314962025954790e+01 -1.396353213486800e+01 -1.369800176113790e+00
3.326597554301421e+01 -1.411078828893709e+01 -1.161004545048717e+00
3.338233082648051e+01 -1.423368330545706e+01 -9.514773461722802e-01
3.349868610994682e+01 -1.433225505941643e+01 -7.431540708913233e-01
3.361504139341312e+01 -1.440670863279937e+01 -5.370118690992044e-01
3.373139667687943e+01 -1.445731860103532e+01 -3.333082358449397e-01
3.384775196034573e+01 -1.448435903998643e+01 -1.318144117380435e-01
3.396410724381204e+01 -1.448805951174437e+01 6.797263870364957e-02
3.408046252727834e+01 -1.446858438323834e+01 2.666403770370096e-01
3.419681781074465e+01 -1.442603329159593e+01 4.646854385130687e-01
3.431317309421095e+01 -1.436046163943072e+01 6.623429845829998e-01
3.442952837767726e+01 -1.427192107558460e+01 8.594129739901213e-01
3.454588366114356e+01 -1.416052045759394e+01 1.055082517076993e+00
3.466223894460987e+01 -1.402650726043675e+01 1.247755093160330e+00
3.477859422807617e+01 -1.387036724391409e+01 1.434913477339167e+00
3.489494951154248e+01 -1.369293601226993e+01 1.613061309493990e+00
3.501130479500878e+01 -1.349550998246795e+01 1.777802026299761e+00
3.512766007847509e+01 -1.327993731167621e+01 1.924112589457743e+00
3.524401536194139e+01 -1.304866400270854e+01 2.046840840763038e+00
3.536037064540770e+01 -1.280471032150108e+01 2.141394002516614e+00
3.547672592887400e+01 -1.255156111975869e+01 2.204504321436873e+00
3.559308121234031e+01 -1.229297117679832e+01 2.234890874350163e+00
3.570943649580661e+01 -1.203270899114641e+01 2.233627605109719e+00
3.582579177927292e+01 -1.177428115779982e+01 2.204098959897992e+00
3.594214706273922e+01 -1.152068610583017e+01 2.151552733764485e+00
3.605850234620553e+01 -1.127423724525362e+01 2.082384202253918e+00
3.617485762967183e+01 -1.103647557094951e+01 2.003347793262132e+00
3.629121291313814e+01 -1.080816929505525e+01 1.920874031121424e+00
3.640756819660444e+01 -1.058938133651495e+01 1.840596374251946e+00
3.652392348007075e+01 -1.037957827068666e+01 1.767109254759468e+00
3.664027876353705e+01 -1.017775568221125e+01 1.703918374281740e+00
3.675663404700336e+01 -9.982561265088753e+00 1.653517549055106e+00
3.687298933046966e+01 -9.792404860872768e+00 1.617526349318628e+00
3.698934461393597e+01 -9.605551540142235e+00 1.596836764195677e+00
3.710569989740227e+01 -9.420198837038166e+00 1.591734591140301e+00
3.722205518086858e+01 -9.234542316544269e+00 1.601976478435072e+00
3.733841046433488e+01 -9.046835172669553e+00 1.626814986312947e+00
3.745476574780119e+01 -8.855447926369701e+00 1.664972598839175e+00
3.757112103126750e+01 -8.658933741228244e+00 1.714573234919325e+00
3.768747631473380e+01 -8.456103399156030e+00 1.773048355405857e+00
3.780383159820011e+01 -8.246111398217986e+00 1.837045244199359e+00
3.792018688166641e+01 -8.028550749999624e+00 1.902376644309170e+00
3.803654216513272e+01 -7.803548911674413e+00 1.964060079483845e+00
3.815289744859902e+01 -7.571851534084141e+00 2.016495230990453e+00
3.826925273206533e+01 -7.334875877104592e+00 2.053810541451134e+00
3.838560801553163e+01 -7.094714192656318e+00 2.070370849938014e+00
3.850196329899794e+01 -6.854071518078834e+00 2.061381367565547e+00
3.861831858246424e+01 -6.616133165613893e+00 2.023468942286441e+00
3.873467386593055e+01 -6.384372859697431e+00 1.955097805353544e+00
3.885102914939685e+01 -6.162327985503665e+00 1.856705327683139e+00
3.896738443286316e+01 -5.953377612340617e+00 1.730520285037545e+00
3.908373971632946e+01 -5.760557815853932e+00 1.580119895929519e+00
3.920009499979577e+01 -5.586437879752420e+00 1.409850208207829e+00
3.931645028326207e+01 -5.433064956796916e+00 1.224251053345804e+00
3.943280556672838e+01 -5.301969814499076e+00 1.027594998921255e+00
3.954916085019468e+01 -5.194216704279568e+00 8.235941580412136e-01
3.966551613366099e+01 -5.110477297780461e+00 6.152765325121398e-01
3.978187141712729e+01 -5.051110576042904e+00 4.050005618616147e-01
3.989822670059360e+01 -5.016235072390228e+00 1.945647452978659e-01
4.001458198405990e+01 -5.005784815908179e+00 -1.462779523830463e-02
4.013093726752621e+01 -5.019544468330839e+00 -2.213804951042772e-01
4.024729255099251e+01 -5.057162147018412e+00 -4.245115393617809e-01
4.036364783445882e+01 -5.118140519047962e+00 -6.226745157788945e-01
4.048000311792512e+01 -5.201808437259316e+00 -8.142058193014744e-01
4.059635840139143e+01 -5.307277181981706e+00 -9.970158391940834e-01
4.071271368485773e+01 -5.433387607743288e+00 -1.168545332273560e+00
4.082906896832404e+01 -5.578657162903962e+00 -1.325810748533665e+00
4.094542425179034e+01 -5.741238357124635e+00 -1.465558075203616e+00
4.106177953525665e+01 -5.918901784231968e+00 -1.584530007129094e+00
4.117813481872295e+01 -6.109055947108926e+00 -1.679825176284403e+00
4.129449010218926e+01 -6.308811800977264e+00 -1.749296097350476e+00
4.141084538565556e+01 -6.515092074277107e+00 -1.791906340554845e+00
4.152720066912187e+01 -6.724775580957075e+00 -1.807961605671777e+00
4.164355595258817e+01 -6.934857863633119e+00 -1.799152364296438e+00
4.175991123605448e+01 -7.142604831414264e+00 -1.768392890380665e+00
4.187626651952078e+01 -7.345677455142549e+00 -1.719495107969073e+00
4.199262180298709e+01 -7.542212531029485e+00 -1.656754240522093e+00
4.210897708645339e+01 -7.730854373202934e+00 -1.584533515659167e+00
4.222533236991970e+01 -7.910741682661994e+00 -1.506918292083010e+00
4.234168765338600e+01 -8.081460243045766e+00 -1.427478071760891e+00
4.245804293685231e+01 -8.242974630033896e+00 -1.349142480890072e+00
4.257439822031861e+01 -8.395551371763716e+00 -1.274174248373048e+00
4.269075350378492e+01 -8.539683277597597e+00 -1.204211355893501e+00
4.280710878725122e+01 -8.676021287574109e+00 -1.140349681914212e+00
4.292346407071753e+01 -8.805317112364643e+00 -1.083242457613750e+00
4.303981935418383e+01 -8.928377583067562e+00 -1.033199909461385e+00
4.315617463765014e+01 -9.046030095127598e+00 -9.902791363770201e-01
4.327252992111644e+01 -9.159097690553279e+00 -9.543594462132127e-01
4.338888520458275e+01 -9.268381984886013e+00 -9.252018511611259e-01
4.350524048804905e+01 -9.374652124171496e+00 -9.024934490783004e-01
4.362159577151536e+01 -9.478638107013166e+00 -8.858783984211739e-01
4.373795105498166e+01 -9.581027028613088e+00 -8.749775084479434e-01
4.385430633844797e+01 -9.682461038084261e+00 -8.693984096015368e-01
4.397066162191427e+01 -9.783536016875152e+00 -8.687380468067096e-01
4.408701690538058e+01 -9.884800173893908e+00 -8.725789823131087e-01
4.420337218884688e+01 -9.986751912933590e+00 -8.804807840647925e-01
4.431972747231319e+01 -1.008983646847580e+01 -8.919676559039527e-01
4.443608275577949e+01 -1.019444093902928e+01 -9.065134609869721e-01
4.455243803924580e+01 -1.030088748678717e+01 -9.235254072917336e-01
4.466879332271211e+01 -1.040942463249148e+01 -9.423278956676050e-01
4.478514860617841e+01 -1.052021676680285e+01 -9.621483477531961e-01
4.490150388964472e+01 -1.063333223115672e+01 -9.821071773048229e-01
4.501785917311102e+01 -1.074873059061153e+01 -1.001214354961732e+00
4.513421445657733e+01 -1.086625001478302e+01 -1.018375120809041e+00
4.525056974004363e+01 -1.098559597113701e+01 -1.032407177180353e+00
4.536692502350994e+01 -1.110633267149053e+01 -1.042071009187193e+00
4.548328030697624e+01 -1.122787883810041e+01 -1.046113750620369e+00
4.559963559044255e+01 -1.134950930725020e+01 -1.043325269605063e+00
4.571599087390885e+01 -1.147036371560621e+01 -1.032603085712927e+00
4.583234615737516e+01 -1.158946300044963e+01 -1.013020715337698e+00
4.594870144084146e+01 -1.170573372235437e+01 -9.838925603061116e-01
4.606505672430777e+01 -1.181803937857817e+01 -9.448279821694366e-01
4.618141200777407e+01 -1.192521705471612e+01 -8.957680400251526e-01
4.629776729124038e+01 -1.202611711543464e+01 -8.370004897705671e-01
4.641412257470668e+01 -1.211964329245293e+01 -7.691516563267765e-01
4.653047785817299e+01 -1.220479055638903e+01 -6.931570312637348e-01
4.664683314163929e+01 -1.228067854176882e+01 -6.102151806257102e-01
4.676318842510560e+01 -1.234657893645310e+01 -5.217312012322030e-01
4.687954370857190e+01 -1.240193600482858e+01 -4.292562977543624e-01
4.699589899203821e+01 -1.244638013866984e+01 -3.344291897314465e-01
4.711225427550451e+01 -1.247973490224922e+01 -2.389233898614951e-01
4.722860955897082e+01 -1.250201839443447e+01 -1.444024255869576e-01
4.734496484243712e+01 -1.251343988289009e+01 -5.248326561459001e-02
4.746132012590343e+01 -1.251439261278969e+01 3.529311907263762e-02
4.757767540936973e+01 -1.250544352051469e+01 1.174858367021919e-01
4.769403069283604e+01 -1.248732036540195e+01 1.927746624961967e-01
4.781038597630234e+01 -1.246089659589546e+01 2.599785800356375e-01
4.792674125976865e+01 -1.242717413884883e+01 3.180729860573701e-01
4.804309654323495e+01 -1.238726426741803e+01 3.662054207681441e-01
4.815945182670126e+01 -1.234236676459416e+01 4.037089346425360e-01
4.827580711016756e+01 -1.229374773413010e+01 4.301117220937515e-01
4.839216239363387e+01 -1.224271657966429e+01 4.451415549440204e-01
4.850851767710017e+01 -1.219060282909399e+01 4.487238632491364e-01
4.862487296056648e+01 -1.213873357953315e+01 4.409729749917686e-01
4.874122824403278e+01 -1.208841234546839e+01 4.221768977837789e-01
4.885758352749909e+01 -1.204089999547526e+01 3.927769183354003e-01
4.897393881096539e+01 -1.199739826965996e+01 3.533440237734629e-01
4.909029409443170e+01 -1.195903610870171e+01 3.045545733694507e-01
4.920664937789800e+01 -1.192685873594856e+01 2.471677041091255e-01
4.932300466136431e+01 -1.190181915946431e+01 1.820066509601413e-01
4.943935994483061e+01 -1.188477153907525e+01 1.099455747990711e-01
4.955571522829692e+01 -1.187646572173748e+01 3.190271935028621e-02
4.967207051176322e+01 -1.187754220233273e+01 -5.116013631168626e-02
4.978842579522953e+01 -1.188852682111987e+01 -1.382328220529952e-01
4.990478107869583e+01 -1.190982466070586e+01 -2.282482205094626e-01

