# omega0=1, alpha=1.7
# theta0=0.1, theta_dot0=0
# t_start=0, t_end=50, h=0.00911928
#   t          x(t)                 v(t)       
0  1.000000000000000e-01  0.000000000000000e+00
9.119282013323059e-02 9.960580035972377e-02 -8.421872685884464e-03
1.823856402664613e-01 9.850268665910067e-02 -1.556977816153332e-02
2.735784603996920e-01 9.680091565241944e-02 -2.157190155360596e-02
3.647712805329227e-01 9.459949815852725e-02 -2.654677716587888e-02
4.559641006661534e-01 9.198705748638888e-02 -3.060376494019495e-02
5.471569207993838e-01 8.904264412400037e-02 -3.384353213851017e-02
6.383497409326140e-01 8.583650648811711e-02 -3.635853444963291e-02
7.295425610658441e-01 8.243081800730921e-02 -3.823349187350895e-02
8.207353811990743e-01 7.888036118812011e-02 -3.954585572978817e-02
9.119282013323045e-01 7.523316960790806e-02 -4.036626397496982e-02
1.003121021465535e+00 7.153112900211768e-02 -4.075898270451903e-02
1.094313841598765e+00 6.781053878079128e-02 -4.078233227972123e-02
1.185506661731995e+00 6.410263542997162e-02 -4.048909697251490e-02
1.276699481865225e+00 6.043407933743769e-02 -3.992691738368835e-02
1.367892301998455e+00 5.682740663648866e-02 -3.913866517765332e-02
1.459085122131685e+00 5.330144769233517e-02 -3.816279990533483e-02
1.550277942264916e+00 4.987171386790948e-02 -3.703370786798536e-02
1.641470762398146e+00 4.655075420338087e-02 -3.578202311907446e-02
1.732663582531376e+00 4.334848362934463e-02 -3.443493081687594e-02
1.823856402664606e+00 4.027248430987781e-02 -3.301645323323626e-02
1.915049222797836e+00 3.732828168025477e-02 -3.154771879903676e-02
2.006242042931067e+00 3.451959670654790e-02 -3.004721462765040e-02
2.097434863064297e+00 3.184857585177093e-02 -2.853102300690310e-02
2.188627683197527e+00 2.931600018661959e-02 -2.701304238964557e-02
2.279820503330757e+00 2.692147503303156e-02 -2.550519344447010e-02
2.371013323463987e+00 2.466360147641963e-02 -2.401761075244803e-02
2.462206143597217e+00 2.254013102813511e-02 -2.255882075384118e-02
2.553398963730448e+00 2.054810466403324e-02 -2.113590656120743e-02
2.644591783863678e+00 1.868397740842543e-02 -1.975466026272128e-02
2.735784603996908e+00 1.694372957565392e-02 -1.841972334233832e-02
2.826977424130138e+00 1.532296572441151e-02 -1.713471584208647e-02
2.918170244263368e+00 1.381700232311323e-02 -1.590235488667540e-02
3.009363064396598e+00 1.242094506843040e-02 -1.472456318218044e-02
3.100555884529828e+00 1.112975674380825e-02 -1.360256808916217e-02
3.191748704663059e+00 9.938316450658612e-03 -1.253699185660903e-02
3.282941524796289e+00 8.841470992167571e-03 -1.152793358690024e-02
3.374134344929519e+00 7.834079138470498e-03 -1.057504348393452e-02
3.465327165062749e+00 6.911049452477294e-03 -9.677589916989859e-03
3.556519985195979e+00 6.067372308004823e-03 -8.834519812085972e-03
3.647712805329209e+00 5.298146686187577e-03 -8.044512860908768e-03
3.738905625462440e+00 4.598602292463460e-03 -7.306030014992973e-03
3.830098445595670e+00 3.964117494816935e-03 -6.617356710092179e-03
3.921291265728900e+00 3.390233544433305e-03 -5.976641242714202e-03
4.012484085862130e+00 2.872665502483256e-03 -5.381928697860146e-03
4.103676905995361e+00 2.407310261406990e-03 -4.831190804249300e-03
4.194869726128591e+00 1.990252015778510e-03 -4.322352070887459e-03
4.286062546261821e+00 1.617765506566870e-03 -3.853312536869997e-03
4.377255366395051e+00 1.286317333325592e-03 -3.421967444909011e-03
4.468448186528281e+00 9.925656014784403e-04 -3.026224128323349e-03
4.559641006661511e+00 7.333581463666040e-04 -2.664016381201343e-03
4.650833826794742e+00 5.057295520106902e-04 -2.333316562192750e-03
4.742026646927972e+00 3.068971605480833e-04 -2.032145663949405e-03
4.833219467061202e+00 1.342562479563699e-04 -1.758581562641410e-03
4.924412287194432e+00 -1.462547711118174e-05 -1.510765645244335e-03
5.015605107327662e+00 -1.420139118506367e-04 -1.286907996430881e-03
5.106797927460892e+00 -2.500150115571365e-04 -1.085291311907086e-03
5.197990747594122e+00 -3.405815465273418e-04 -9.042736909010871e-04
5.289183567727353e+00 -4.155200678563400e-04 -7.422904472284169e-04
5.380376387860583e+00 -4.764979985111482e-04 -5.978550659035381e-04
5.471569207993813e+00 -5.250507771045786e-04 -4.695594206206370e-04
5.562762028127043e+00 -5.625889918086362e-04 -3.560733565620797e-04
5.653954848260273e+00 -5.904054509058548e-04 -2.561437328824414e-04
5.745147668393503e+00 -6.096821446474562e-04 -1.685930098296606e-04
5.836340488526734e+00 -6.214970604335693e-04 -9.231745677134895e-05
5.927533308659964e+00 -6.268308199146679e-04 -2.628504936131983e-05
6.018726128793194e+00 -6.265731124936397e-04 3.046688332379200e-05
6.109918948926424e+00 -6.215289049402229e-04 7.883420765834794e-05
6.201111769059654e+00 -6.124244114666803e-04 1.196486825809542e-04
6.292304589192884e+00 -5.999128127052848e-04 1.536807628951808e-04
6.383497409326115e+00 -5.845797156212791e-04 1.816424719273511e-04
6.474690229459345e+00 -5.669483495333971e-04 2.041903114662831e-04
6.565883049592575e+00 -5.474844961388985e-04 2.219281812291958e-04
6.657075869725805e+00 -5.266011537898202e-04 2.354102840107044e-04
6.748268689859035e+00 -5.046629382775321e-04 2.451439962061914e-04
6.839461509992265e+00 -4.819902240869927e-04 2.515926865839693e-04
6.930654330125495e+00 -4.588630315111409e-04 2.551784690384786e-04
7.021847150258726e+00 -4.355246661981866e-04 2.562848776140109e-04
7.113039970391956e+00 -4.121851186664921e-04 2.552594543685898e-04
7.204232790525186e+00 -3.890242320875111e-04 2.524162426729225e-04
7.295425610658416e+00 -3.661946472291691e-04 2.480381803307709e-04
7.386618430791646e+00 -3.438245338905075e-04 2.423793884844634e-04
7.477811250924876e+00 -3.220201184620713e-04 2.356673536511906e-04
7.569004071058107e+00 -3.008680174323936e-04 2.281050014396214e-04
7.660196891191337e+00 -2.804373867445138e-04 2.198726615385448e-04
7.751389711324567e+00 -2.607818969018020e-04 2.111299244648887e-04
7.842582531457797e+00 -2.419415436421641e-04 2.020173913217362e-04
7.933775351591027e+00 -2.239443038554290e-04 1.926583184609939e-04
8.024968171724257e+00 -2.068076462206878e-04 1.831601594823201e-04
8.116160991857488e+00 -1.905399057978084e-04 1.736160074410498e-04
8.207353811990718e+00 -1.751415315285464e-04 1.641059404935136e-04
8.298546632123948e+00 -1.606062152949694e-04 1.546982744878840e-04
8.389739452257178e+00 -1.469219108528255e-04 1.454507262212335e-04
8.480932272390408e+00 -1.340717506107688e-04 1.364114912368821e-04
8.572125092523638e+00 -1.220348678680733e-04 1.276202401376450e-04
8.663317912656868e+00 -1.107871317580277e-04 1.191090374469448e-04
8.754510732790099e+00 -1.003018017754575e-04 1.109031870669700e-04
8.845703552923329e+00 -9.055010839807668e-05 1.030220083666386e-04
8.936896373056559e+00 -8.150176594547072e-05 9.547954688701361e-05
9.028089193189789e+00 -7.312542345885796e-05 8.828522358248721e-05
9.119282013323019e+00 -6.538905903140076e-05 8.144442642651281e-05
9.210474833456249e+00 -5.826032267440470e-05 7.495904810450950e-05
9.301667653589480e+00 -5.170683247062975e-05 6.882797339699672e-05
9.392860473722710e+00 -4.569642844322777e-05 6.304751972588312e-05
9.484053293855940e+00 -4.019738825836274e-05 5.761183419865298e-05
9.575246113989170e+00 -3.517860858199533e-05 5.251325034118585e-05
9.666438934122400e+00 -3.060975562706214e-05 4.774260756205395e-05
9.757631754255630e+00 -2.646138815662586e-05 4.328953624106561e-05
9.848824574388860e+00 -2.270505595164908e-05 3.914271118402928e-05
9.940017394522091e+00 -1.931337650885448e-05 3.529007603546584e-05
1.003121021465532e+01 -1.626009250458029e-05 3.171904109237543e-05
1.012240303478855e+01 -1.352011234442950e-05 2.841665681607876e-05
1.021359585492178e+01 -1.106953591557761e-05 2.536976519636333e-05
1.030478867505501e+01 -8.885667468517340e-06 2.256513098329685e-05
1.039598149518824e+01 -6.947017377397456e-06 1.998955466763068e-05
1.048717431532147e+01 -5.233294362533888e-06 1.762996896110288e-05
1.057836713545470e+01 -3.725389604680429e-06 1.547352040346907e-05
1.066955995558793e+01 -2.405354037764387e-06 1.350763760396084e-05
1.076075277572116e+01 -1.256369974524424e-06 1.172008751124404e-05
1.085194559585439e+01 -2.627180973272632e-07 1.009902099790804e-05
1.094313841598762e+01 5.902592661238321e-07 8.633008943091224e-06
1.103433123612085e+01 1.316197765954885e-06 7.311069900019471e-06
1.112552405625408e+01 1.927752830829381e-06 6.122690343945529e-06
1.121671687638731e+01 2.436643011693111e-06 5.057838410134119e-06
1.130790969652054e+01 2.853694313291785e-06 4.106971951020110e-06
1.139910251665377e+01 3.188885030334147e-06 3.261041666329560e-06
1.149029533678700e+01 3.451390670669636e-06 2.511489989632231e-06
1.158148815692023e+01 3.649628607155204e-06 1.850246349310207e-06
1.167268097705346e+01 3.791302153433136e-06 1.269719361089930e-06
1.176387379718669e+01 3.883443807045371e-06 7.627864528953622e-07
1.185506661731992e+01 3.932457446566137e-06 3.227813706334729e-07
1.194625943745315e+01 3.944159308121311e-06 -5.652003458811418e-08
1.203745225758638e+01 3.923817601138061e-06 -3.809153815967497e-07
1.212864507771961e+01 3.876190653771523e-06 -6.557923810968704e-07
1.221983789785284e+01 3.805563505506993e-06 -8.861462261284727e-07
1.231103071798607e+01 3.715782888238015e-06 -1.076597506800468e-06
1.240222353811930e+01 3.610290557956440e-06 -1.231410436096627e-06
1.249341635825254e+01 3.492154957325490e-06 -1.354511201774801e-06
1.258460917838577e+01 3.364101205089387e-06 -1.449506284974035e-06
1.267580199851900e+01 3.228539421734594e-06 -1.519700609289591e-06
1.276699481865223e+01 3.087591412273597e-06 -1.568115404946244e-06
1.285818763878546e+01 2.943115736672148e-06 -1.597505691461515e-06
1.294938045891869e+01 2.796731206470154e-06 -1.610377299001269e-06
1.304057327905192e+01 2.649838852725764e-06 -1.609003363640972e-06
1.313176609918515e+01 2.503642415699363e-06 -1.595440245099821e-06
1.322295891931838e+01 2.359167410833881e-06 -1.571542827347120e-06
1.331415173945161e+01 2.217278828713086e-06 -1.538979172918041e-06
1.340534455958484e+01 2.078697528911894e-06 -1.499244510939253e-06
1.349653737971807e+01 1.944015389103293e-06 -1.453674546866272e-06
1.358773019985130e+01 1.813709271556329e-06 -1.403458088879039e-06
1.367892301998453e+01 1.688153869340559e-06 -1.349648991868493e-06
1.377011584011776e+01 1.567633494227633e-06 -1.293177425066297e-06
1.386130866025099e+01 1.452352867525353e-06 -1.234860473707482e-06
1.395250148038422e+01 1.342446973961273e-06 -1.175412088750512e-06
1.404369430051745e+01 1.237990037312478e-06 -1.115452401684012e-06
1.413488712065068e+01 1.139003674809803e-06 -1.055516423891582e-06
1.422607994078391e+01 1.045464285477036e-06 -9.960621519876975e-07
1.431727276091714e+01 9.573097255414329e-07 -9.374781020355326e-07
1.440846558105037e+01 8.744453219093583e-07 -8.800902966640025e-07
1.449965840118360e+01 7.967492724734332e-07 -8.241687298639070e-07
1.459085122131683e+01 7.240774797346242e-07 -7.699333347054251e-07
1.468204404145006e+01 6.562678619097562e-07 -7.175594794208229e-07
1.477323686158329e+01 5.931441833741151e-07 -6.671830172730428e-07
1.486442968171652e+01 5.345194439791044e-07 -6.189049154152769e-07
1.495562250184975e+01 4.801988645025283e-07 -5.727954875679821e-07
1.504681532198298e+01 4.299825032476284e-07 -5.288982548244129e-07
1.513800814211621e+01 3.836675366178915e-07 -4.872334582672205e-07
1.522920096224944e+01 3.410502343671954e-07 -4.478012463580911e-07
1.532039378238267e+01 3.019276581666026e-07 -4.105845592685336e-07
1.541158660251590e+01 2.660991101459424e-07 -3.755517314694148e-07
1.550277942264913e+01 2.333673561647421e-07 -3.426588330043597e-07
1.559397224278236e+01 2.035396467462805e-07 -3.118517689505869e-07
1.568516506291559e+01 1.764285568726947e-07 -2.830681556313976e-07
1.577635788304882e+01 1.518526641893090e-07 -2.562389911971753e-07
1.586755070318205e+01 1.296370836030374e-07 -2.312901372448193e-07
1.595874352331528e+01 1.096138747824438e-07 -2.081436272062634e-07
1.604993634344851e+01 9.162233767484436e-08 -1.867188163112456e-07
1.614112916358174e+01 7.550920984721077e-08 -1.669333870229457e-07
1.623232198371497e+01 6.112877823064458e-08 -1.487042229617487e-07
1.632351480384820e+01 4.834291670057356e-08 -1.319481634757002e-07
1.641470762398143e+01 3.702105985399831e-08 -1.165826501889555e-07
1.650590044411466e+01 2.704012234831216e-08 -1.025262760638286e-07
1.659709326424789e+01 1.828437224047097e-08 -8.969924674951886e-08
1.668828608438112e+01 1.064526590752479e-08 -7.802376326233287e-08
1.677947890451435e+01 4.021251336580316e-09 -6.742433434891270e-08
1.687067172464758e+01 -1.682454159062551e-09 -5.782802622595102e-08
1.696186454478081e+01 -6.554106413783566e-09 -4.916465676711383e-08
1.705305736491404e+01 -1.067569230744333e-08 -4.136694062013356e-08
1.714425018504727e+01 -1.412319888674468e-08 -3.437059118377743e-08
1.723544300518050e+01 -1.696689002659384e-08 -2.811438485494173e-08
1.732663582531373e+01 -1.927158741884691e-08 -2.254019246961830e-08
1.741782864544696e+01 -2.109695310387354e-08 -1.759298240693569e-08
1.750902146558019e+01 -2.249777114838041e-08 -1.322079940180654e-08
1.760021428571342e+01 -2.352422642367576e-08 -9.374722717740042e-09
1.769140710584665e+01 -2.422217875467516e-08 -6.008806965873385e-09
1.778259992597988e+01 -2.463343099398522e-08 -3.080008517964262e-09
1.787379274611311e+01 -2.479598982977842e-08 -5.481001486660825e-10
1.796498556624634e+01 -2.474431836318783e-08 1.624423745433353e-09
1.805617838637957e+01 -2.450957969278866e-08 3.472449267105216e-09
1.814737120651280e+01 -2.411987092245488e-08 5.028350639815932e-09
1.823856402664603e+01 -2.360044716642874e-08 6.322101710758056e-09
1.832975684677927e+01 -2.297393526364492e-08 7.381389919753926e-09
1.842094966691250e+01 -2.226053703392536e-08 8.231731502551674e-09
1.851214248704573e+01 -2.147822201320754e-08 8.896586864381731e-09
1.860333530717896e+01 -2.064290969498602e-08 9.397475211149714e-09
1.869452812731219e+01 -1.976864138202726e-08 9.754087662417268e-09
1.878572094744542e+01 -1.886774181745679e-08 9.984398193428442e-09
1.887691376757865e+01 -1.795097081871396e-08 1.010477186389117e-08
1.896810658771188e+01 -1.702766518273466e-08 1.013006988998824e-08
1.905929940784511e+01 -1.610587116707743e-08 1.007375120408774e-08
1.915049222797834e+01 -1.519246788049742e-08 9.947970224718826e-09
1.924168504811157e+01 -1.429328193855989e-08 9.763670628394668e-09
1.933287786824480e+01 -1.341319375606253e-08 9.530674975573982e-09
1.942407068837803e+01 -1.255623585902857e-08 9.257770096180549e-09
1.951526350851126e+01 -1.172568360550003e-08 8.952788186326620e-09
1.960645632864449e+01 -1.092413870690236e-08 8.622683607846409e-09
1.969764914877772e+01 -1.015360594091333e-08 8.273605416532048e-09
1.978884196891095e+01 -9.415563443040778e-09 7.910965674127471e-09
1.988003478904418e+01 -8.711026957940642e-09 7.539503623686966e-09
1.997122760917741e+01 -8.040608423286775e-09 7.163345828317628e-09
2.006242042931064e+01 -7.404569249094266e-09 6.786062390036204e-09
2.015361324944387e+01 -6.802868644118045e-09 6.410719378883555e-09
2.024480606957710e+01 -6.235207328581242e-09 6.039927612924565e-09
2.033599888971033e+01 -5.701066959285164e-09 5.675887937657734e-09
2.042719170984356e+01 -5.199745579335959e-09 5.320433158977729e-09
2.051838452997679e+01 -4.730389390486818e-09 4.975066787459569e-09
2.060957735011002e+01 -4.292021131608789e-09 4.640998753623420e-09
2.070077017024325e+01 -3.883565332215156e-09 4.319178254228684e-09
2.079196299037648e+01 -3.503870695400965e-09 4.010323888747688e-09
2.088315581050971e+01 -3.151729850129257e-09 3.714951243174795e-09
2.097434863064294e+01 -2.825896698590680e-09 3.433398075408834e-09
2.106554145077617e+01 -2.525101570460569e-09 3.165847252760526e-09
2.115673427090940e+01 -2.248064382340854e-09 2.912347587820729e-09
2.124792709104263e+01 -1.993505987554915e-09 2.672832714103529e-09
2.133911991117586e+01 -1.760157888802907e-09 2.447138137660212e-09
2.143031273130909e+01 -1.546770474014545e-09 2.235016595343028e-09
2.152150555144232e+01 -1.352119924079394e-09 2.036151844666870e-09
2.161269837157555e+01 -1.175013930007126e-09 1.850171004347280e-09
2.170389119170878e+01 -1.014296346481840e-09 1.676655558649757e-09
2.179508401184201e+01 -8.688508987292190e-10 1.515151132724476e-09
2.188627683197524e+01 -7.376040501126584e-10 1.365176140170668e-09
2.197746965210847e+01 -6.195271289094497e-10 1.226229398217167e-09
2.206866247224170e+01 -5.136378042827451e-10 1.097796800154899e-09
2.215985529237493e+01 -4.190009935480094e-10 9.793571290420629e-10
2.225104811250816e+01 -3.347292754206232e-10 8.703870912473726e-10
2.234224093264139e+01 -2.599828770087263e-10 7.703656431199259e-10
2.243343375277462e+01 -1.939692958652961e-10 6.787776789910718e-10
2.252462657290785e+01 -1.359426124176319e-10 5.951171438353925e-10
2.261581939304108e+01 -8.520254253180702e-11 5.188896292527103e-10
2.270701221317431e+01 -4.109327482452942e-11 4.496145069861790e-10
2.279820503330754e+01 -3.002132585194601e-12 3.868266499659440e-10
2.288939785344077e+01 2.964190420353926e-11 3.300777868642470e-10
2.298059067357400e+01 5.736978527775493e-11 2.789375323652054e-10
2.307178349370723e+01 8.067405715242700e-11 2.329941317881747e-10
2.316297631384046e+01 1.000105864145230e-10 1.918549553536931e-10
2.325416913397369e+01 1.158003179071964e-10 1.551467742405169e-10
2.334536195410692e+01 1.284310492594882e-10 1.225158476452748e-10
2.343655477424015e+01 1.382592057534264e-10 9.362784731618903e-11
2.352774759437338e+01 1.456116018167215e-10 6.816764348194721e-11
2.361894041450661e+01 1.507871775013442e-10 4.583897372854680e-11
2.371013323463984e+01 1.540587001724028e-10 2.636401418285873e-11
2.380132605477307e+01 1.556744233034135e-10 9.482870333638809e-12
2.389251887490630e+01 1.558596957680540e-10 -5.046997049475659e-12
2.398371169503953e+01 1.548185163488191e-10 -1.745139715908234e-11
2.407490451517276e+01 1.527350293629263e-10 -2.794007339465183e-11
2.416609733530600e+01 1.497749583478551e-10 -3.670739589421849e-11
2.425729015543923e+01 1.460869756648387e-10 -4.393307295958465e-11
2.434848297557246e+01 1.418040066795071e-10 -4.978287318504612e-11
2.443967579570569e+01 1.370444678750737e-10 -5.440935119340114e-11
2.453086861583892e+01 1.319134388546304e-10 -5.795257087431687e-11
2.462206143597215e+01 1.265037687042922e-10 -6.054082091607488e-11
2.471325425610538e+01 1.208971176264915e-10 -6.229131822909828e-11
2.480444707623861e+01 1.151649351204459e-10 -6.331089558498306e-11
2.489563989637184e+01 1.093693762919047e-10 -6.369667044421399e-11
2.498683271650507e+01 1.035641581233730e-10 -6.353669252523619e-11
2.507802553663830e+01 9.779535773523336e-11 -6.291056818266660e-11
2.516921835677153e+01 9.210215482316840e-11 -6.189006011843948e-11
2.526041117690476e+01 8.651752057318797e-11 -6.053966135157016e-11
2.535160399703799e+01 8.106885543710619e-11 -5.891714272466515e-11
2.544279681717122e+01 7.577857820280114e-11 -5.707407353269426e-11
2.553398963730445e+01 7.066466881894282e-11 -5.505631512597487e-11
2.562518245743768e+01 6.574116743665222e-11 -5.290448756863134e-11
2.571637527757091e+01 6.101863211397618e-11 -5.065440962954707e-11
2.580756809770414e+01 5.650455759603558e-11 -4.833751254833821e-11
2.589876091783737e+01 5.220375753684663e-11 -4.598122815721254e-11
2.598995373797060e+01 4.811871247047131e-11 -4.360935205357512e-11
2.608114655810383e+01 4.424988577142374e-11 -4.124238261051900e-11
2.617233937823706e+01 4.059600976901273e-11 -3.889783668530556e-11
2.626353219837029e+01 3.715434409919632e-11 -3.659054294180469e-11
2.635472501850352e+01 3.392090829202661e-11 -3.433291374365734e-11
2.644591783863675e+01 3.089069050416279e-11 -3.213519660249081e-11
2.653711065876998e+01 2.805783421535349e-11 -3.000570618154925e-11
2.662830347890321e+01 2.541580461621851e-11 -2.795103786113008e-11
2.671949629903644e+01 2.295753632294160e-11 -2.597626386963244e-11
2.681068911916967e+01 2.067556396334792e-11 -2.408511297408224e-11
2.690188193930290e+01 1.856213708890036e-11 -2.228013470783449e-11
